# Pressure coefficient results from CFL3D, Smits convex curvature case, SST-RC model
# Cp has been shifted by -0.04 to match experimental reference conditions
VARIABLES = "x","cp"
 -1.436499953E+00 -6.075328216E-02
 -1.422662258E+00 -6.951928139E-02
 -1.408899546E+00 -7.740316540E-02
 -1.395212531E+00 -7.785800099E-02
 -1.381601930E+00 -7.993923873E-02
 -1.368068218E+00 -8.153806627E-02
 -1.354612112E+00 -8.319202811E-02
 -1.341234207E+00 -8.472194523E-02
 -1.327935100E+00 -8.622429520E-02
 -1.314715147E+00 -8.768529445E-02
 -1.301575065E+00 -8.910494298E-02
 -1.288515329E+00 -9.048324078E-02
 -1.275536299E+00 -9.183397889E-02
 -1.262638569E+00 -9.317093343E-02
 -1.249822497E+00 -9.446653724E-02
 -1.237088561E+00 -9.574835747E-02
 -1.224436998E+00 -9.700261056E-02
 -1.211868405E+00 -9.822929651E-02
 -1.199383140E+00 -9.944220632E-02
 -1.186981320E+00 -1.006413251E-01
 -1.174663424E+00 -1.018128842E-01
 -1.162429690E+00 -1.029568687E-01
 -1.150280356E+00 -1.041008607E-01
 -1.138215780E+00 -1.052172855E-01
 -1.126236081E+00 -1.063199267E-01
 -1.114341617E+00 -1.073950008E-01
 -1.102532506E+00 -1.084700748E-01
 -1.090808988E+00 -1.095313653E-01
 -1.079171181E+00 -1.105650961E-01
 -1.067619085E+00 -1.115988195E-01
 -1.056153059E+00 -1.126049832E-01
 -1.044773102E+00 -1.135973558E-01
 -1.033479333E+00 -1.145897359E-01
 -1.022271752E+00 -1.155683249E-01
 -1.011150599E+00 -1.165193543E-01
 -1.000115633E+00 -1.174703836E-01
 -9.891671538E-01 -1.184076294E-01
 -9.783049226E-01 -1.193310916E-01
 -9.675291181E-01 -1.202545539E-01
 -9.568396211E-01 -1.211504489E-01
 -9.462364316E-01 -1.220463440E-01
 -9.357194304E-01 -1.229284555E-01
 -9.252886176E-01 -1.237967908E-01
 -9.149438143E-01 -1.246513352E-01
 -9.046850204E-01 -1.255058795E-01
 -8.945120573E-01 -1.263466477E-01
 -8.844248652E-01 -1.271736324E-01
 -8.744231462E-01 -1.280006170E-01
 -8.645069003E-01 -1.288000196E-01
 -8.546758890E-01 -1.295994371E-01
 -8.449299335E-01 -1.303988546E-01
 -8.352688551E-01 -1.311844885E-01
 -8.256924152E-01 -1.319563389E-01
 -8.162004352E-01 -1.327144057E-01
 -8.067926168E-01 -1.334724724E-01
 -7.974687815E-01 -1.342167556E-01
 -7.882286310E-01 -1.349472553E-01
 -7.790719271E-01 -1.356777549E-01
 -7.699983716E-01 -1.364082545E-01
 -7.610076666E-01 -1.371111870E-01
 -7.520995140E-01 -1.378141195E-01
 -7.432736754E-01 -1.385170519E-01
 -7.345297337E-01 -1.392062008E-01
 -7.258674502E-01 -1.398815662E-01
 -7.172864079E-01 -1.405569315E-01
 -7.087863088E-01 -1.412185282E-01
 -7.003667951E-01 -1.418801099E-01
 -6.920275092E-01 -1.425279081E-01
 -6.837680340E-01 -1.431619227E-01
 -6.755880713E-01 -1.437959522E-01
 -6.674872041E-01 -1.444299668E-01
 -6.594650149E-01 -1.450501978E-01
 -6.515211463E-01 -1.456566453E-01
 -6.436551213E-01 -1.462631077E-01
 -6.358665824E-01 -1.468557715E-01
 -6.281551123E-01 -1.474484354E-01
 -6.205202937E-01 -1.480411142E-01
 -6.129616499E-01 -1.486199945E-01
 -6.054787636E-01 -1.491851062E-01
 -5.980712175E-01 -1.497502029E-01
 -5.907385945E-01 -1.503153145E-01
 -5.834802985E-01 -1.508666277E-01
 -5.762960315E-01 -1.514041722E-01
 -5.691852570E-01 -1.519417018E-01
 -5.621474981E-01 -1.524792463E-01
 -5.551823378E-01 -1.530029923E-01
 -5.482892990E-01 -1.535267532E-01
 -5.414678454E-01 -1.540367305E-01
 -5.347175002E-01 -1.545466930E-01
 -5.280378461E-01 -1.550428867E-01
 -5.214283466E-01 -1.555390656E-01
 -5.148885846E-01 -1.560352594E-01
 -5.084179640E-01 -1.565176696E-01
 -5.020160079E-01 -1.570000648E-01
 -4.956822991E-01 -1.574686915E-01
 -4.894162714E-01 -1.579373181E-01
 -4.832174182E-01 -1.584059447E-01
 -4.770852923E-01 -1.588607728E-01
 -4.710193276E-01 -1.593156159E-01
 -4.650190473E-01 -1.597566754E-01
 -4.590839446E-01 -1.601977348E-01
 -4.532135129E-01 -1.606387943E-01
 -4.474072456E-01 -1.610660553E-01
 -4.416646063E-01 -1.614933312E-01
 -4.359851182E-01 -1.619206071E-01
 -4.303682745E-01 -1.623340994E-01
 -4.248135090E-01 -1.627475917E-01
 -4.193203449E-01 -1.631610841E-01
 -4.138883054E-01 -1.635607928E-01
 -4.085167944E-01 -1.639604867E-01
 -4.032053947E-01 -1.643601954E-01
 -3.979535103E-01 -1.647461206E-01
 -3.927606642E-01 -1.651458442E-01
 -3.876263797E-01 -1.655317545E-01
 -3.825500906E-01 -1.659038961E-01
 -3.775313199E-01 -1.662898213E-01
 -3.725695610E-01 -1.666619629E-01
 -3.676642776E-01 -1.670341045E-01
 -3.628149927E-01 -1.674062461E-01
 -3.580211699E-01 -1.677783877E-01
 -3.532823324E-01 -1.681367457E-01
 -3.485979736E-01 -1.685088873E-01
 -3.439675868E-01 -1.688672453E-01
 -3.393906653E-01 -1.692256033E-01
 -3.348667026E-01 -1.695839614E-01
 -3.303952217E-01 -1.699423194E-01
 -3.259757161E-01 -1.703006774E-01
 -3.216077089E-01 -1.706590354E-01
 -3.172906637E-01 -1.710311919E-01
 -3.130241632E-01 -1.713895500E-01
 -3.088076413E-01 -1.717479080E-01
 -3.046406806E-01 -1.721062660E-01
 -3.005227447E-01 -1.724784076E-01
 -2.964533865E-01 -1.728505492E-01
 -2.924320996E-01 -1.732226908E-01
 -2.884584069E-01 -1.735948175E-01
 -2.845318913E-01 -1.739807427E-01
 -2.806520164E-01 -1.743666679E-01
 -2.768183351E-01 -1.747663766E-01
 -2.730303705E-01 -1.751660854E-01
 -2.692876756E-01 -1.755795777E-01
 -2.655898035E-01 -1.759930700E-01
 -2.619362473E-01 -1.764203459E-01
 -2.583265901E-01 -1.768614054E-01
 -2.547603548E-01 -1.773024499E-01
 -2.512370944E-01 -1.777710766E-01
 -2.477563918E-01 -1.782397032E-01
 -2.443177551E-01 -1.787358969E-01
 -2.409207821E-01 -1.792320758E-01
 -2.375650108E-01 -1.797558367E-01
 -2.342500091E-01 -1.802933663E-01
 -2.309753448E-01 -1.808584780E-01
 -2.277406007E-01 -1.814373583E-01
 -2.245453298E-01 -1.820438057E-01
 -2.213891149E-01 -1.826640517E-01
 -2.182715386E-01 -1.833256334E-01
 -2.151921839E-01 -1.840009987E-01
 -2.121506184E-01 -1.847039312E-01
 -2.091464549E-01 -1.854482144E-01
 -2.061792761E-01 -1.862062812E-01
 -2.032486647E-01 -1.870194823E-01
 -2.003542334E-01 -1.878464669E-01
 -1.974955797E-01 -1.887285709E-01
 -1.946723014E-01 -1.896382570E-01
 -1.918840259E-01 -1.906030625E-01
 -1.891303211E-01 -1.915954351E-01
 -1.864108443E-01 -1.926429570E-01
 -1.837251931E-01 -1.937318146E-01
 -1.810729951E-01 -1.948620230E-01
 -1.784538627E-01 -1.960611343E-01
 -1.758674234E-01 -1.973016113E-01
 -1.733133197E-01 -1.986109912E-01
 -1.707911789E-01 -1.999617368E-01
 -1.683006287E-01 -2.013813853E-01
 -1.658413112E-01 -2.028699517E-01
 -1.634128690E-01 -2.044274211E-01
 -1.610149592E-01 -2.060400397E-01
 -1.586472094E-01 -2.077353448E-01
 -1.563092917E-01 -2.094995826E-01
 -1.540008485E-01 -2.113465071E-01
 -1.517215520E-01 -2.132623345E-01
 -1.494710594E-01 -2.152746618E-01
 -1.472490132E-01 -2.173696756E-01
 -1.450551152E-01 -2.195473909E-01
 -1.428890079E-01 -2.218215913E-01
 -1.407503933E-01 -2.241922766E-01
 -1.386389136E-01 -2.266594321E-01
 -1.365542859E-01 -2.292230725E-01
 -1.344961673E-01 -2.318969816E-01
 -1.324642599E-01 -2.346811444E-01
 -1.304582506E-01 -2.375893593E-01
 -1.284778267E-01 -2.406078428E-01
 -1.265226752E-01 -2.437365800E-01
 -1.245925203E-01 -2.470031530E-01
 -1.226870418E-01 -2.503937781E-01
 -1.208059564E-01 -2.539222240E-01
 -1.189489663E-01 -2.575885057E-01
 -1.171157882E-01 -2.614063919E-01
 -1.153061241E-01 -2.653621137E-01
 -1.135196984E-01 -2.694832385E-01
 -1.117562354E-01 -2.737559676E-01
 -1.100154519E-01 -2.781940997E-01
 -1.082970724E-01 -2.828114331E-01
 -1.066008285E-01 -2.875941396E-01
 -1.049264520E-01 -2.925697863E-01
 -1.032736748E-01 -2.977384329E-01
 -1.016422287E-01 -3.031137884E-01
 -1.000318602E-01 -3.086959124E-01
 -9.844230860E-02 -3.144985735E-01
 -9.687332064E-02 -3.205217421E-01
 -9.532465041E-02 -3.267930150E-01
 -9.379603714E-02 -3.332985938E-01
 -9.228723496E-02 -3.400798440E-01
 -9.079800546E-02 -3.471367359E-01
 -8.932811022E-02 -3.544830978E-01
 -8.787730336E-02 -3.621188700E-01
 -8.644535393E-02 -3.701405823E-01
 -8.503202349E-02 -3.784931004E-01
 -8.362331986E-02 -3.872315288E-01
 -8.221461624E-02 -3.965212703E-01
 -8.080591261E-02 -4.063899219E-01
 -7.939720899E-02 -4.168925881E-01
 -7.798850536E-02 -4.281119406E-01
 -7.657980174E-02 -4.401031733E-01
 -7.517109811E-02 -4.530040622E-01
 -7.376239449E-02 -4.668973386E-01
 -7.235369086E-02 -4.820311069E-01
 -7.094499469E-02 -4.985569417E-01
 -6.953629106E-02 -5.168883801E-01
 -6.812758744E-02 -5.373285413E-01
 -6.671888381E-02 -5.602221489E-01
 -6.531018019E-02 -5.841357112E-01
 -6.390147656E-02 -6.164155006E-01
 -6.248774007E-02 -6.530783176E-01
 -6.106714904E-02 -6.850687265E-01
 -5.963763967E-02 -7.230684757E-01
 -5.819493905E-02 -7.492561936E-01
 -5.674401671E-02 -7.655890584E-01
 -5.528499931E-02 -7.888686061E-01
 -5.381682888E-02 -8.140915036E-01
 -5.233783647E-02 -8.305208683E-01
 -5.085144192E-02 -8.405135274E-01
 -4.935776815E-02 -8.590930700E-01
 -4.785495624E-02 -8.762528896E-01
 -4.634349048E-02 -8.843021989E-01
 -4.482545704E-02 -8.899531960E-01
 -4.330097884E-02 -9.049491286E-01
 -4.176764935E-02 -9.148453474E-01
 -4.022761062E-02 -9.153415561E-01
 -3.868185356E-02 -9.173400402E-01
 -3.713050485E-02 -9.292485714E-01
 -3.557085991E-02 -9.322257042E-01
 -3.400622308E-02 -9.250310063E-01
 -3.243673220E-02 -9.264230728E-01
 -3.086191416E-02 -9.309852719E-01
 -2.928082831E-02 -9.270984530E-01
 -2.769562975E-02 -9.165957570E-01
 -2.610645257E-02 -9.150245190E-01
 -2.451247722E-02 -9.126814008E-01
 -2.291403525E-02 -9.018204212E-01
 -2.131236717E-02 -8.879546523E-01
 -1.970760338E-02 -8.830203414E-01
 -1.809884049E-02 -8.738133311E-01
 -1.648716815E-02 -8.557851315E-01
 -1.487315912E-02 -8.382531404E-01
 -1.325695217E-02 -8.292252421E-01
 -1.163781062E-02 -8.129888773E-01
 -1.001706347E-02 -7.871319056E-01
 -8.394882083E-03 -7.672981620E-01
 -6.771285087E-03 -7.503726482E-01
 -5.146317184E-03 -7.267209888E-01
 -3.520679427E-03 -6.968945265E-01
 -1.894508372E-03 -6.764129996E-01
 -2.679399040E-04 -6.515346169E-01
 1.358680311E-03 -6.195029020E-01
 2.985310741E-03 -5.927087069E-01
 4.611941054E-03 -5.710555911E-01
 6.238571368E-03 -5.519798994E-01
 7.865201682E-03 -5.346133113E-01
 9.491831996E-03 -5.185974240E-01
 1.111846231E-02 -5.038358569E-01
 1.274509355E-02 -4.900941551E-01
 1.437172387E-02 -4.773173034E-01
 1.599835418E-02 -4.653536677E-01
 1.762498356E-02 -4.541204870E-01
 1.925161481E-02 -4.435902834E-01
 2.087824419E-02 -4.335700274E-01
 2.250487544E-02 -4.241286516E-01
 2.414635941E-02 -4.152248204E-01
 2.580784075E-02 -4.066380262E-01
 2.748955041E-02 -3.983819783E-01
 2.919172682E-02 -3.904705346E-01
 3.091460653E-02 -3.828760982E-01
 3.265842795E-02 -3.755711019E-01
 3.442343697E-02 -3.685555458E-01
 3.620988131E-02 -3.618156612E-01
 3.801800311E-02 -3.553238511E-01
 3.984805569E-02 -3.490939438E-01
 4.170029238E-02 -3.430845439E-01
 4.357496649E-02 -3.373232484E-01
 4.547234252E-02 -3.317686915E-01
 4.739267379E-02 -3.264346421E-01
 4.933622852E-02 -3.212935925E-01
 5.130327493E-02 -3.163454831E-01
 5.329407752E-02 -3.115903437E-01
 5.530890822E-02 -3.070281744E-01
 5.734804273E-02 -3.026313782E-01
 5.941176042E-02 -2.984000146E-01
 6.150034070E-02 -2.943340242E-01
 6.361406296E-02 -2.904334068E-01
 6.575321406E-02 -2.866706550E-01
 6.791808456E-02 -2.830733061E-01
 7.010896504E-02 -2.796137631E-01
 7.232614607E-02 -2.762920558E-01
 7.456993312E-02 -2.731081843E-01
 7.684061676E-02 -2.700483501E-01
 7.913850248E-02 -2.671125829E-01
 8.146389574E-02 -2.643146217E-01
 8.381710947E-02 -2.616269290E-01
 8.619844913E-02 -2.590495050E-01
 8.860822767E-02 -2.565823495E-01
 9.104677290E-02 -2.542254627E-01
 9.351439774E-02 -2.519788146E-01
 9.601142257E-02 -2.498424649E-01
 9.853818268E-02 -2.477887869E-01
 1.010950059E-01 -2.458316088E-01
 1.036822125E-01 -2.439709008E-01
 1.063001528E-01 -2.422066629E-01
 1.089491621E-01 -2.405251414E-01
 1.116295755E-01 -2.389125228E-01
 1.143417433E-01 -2.373964041E-01
 1.170860156E-01 -2.359629571E-01
 1.198627427E-01 -2.345846593E-01
 1.226722673E-01 -2.333028466E-01
 1.255149692E-01 -2.320761532E-01
 1.283911765E-01 -2.309183776E-01
 1.313012838E-01 -2.298295200E-01
 1.342456490E-01 -2.288095802E-01
 1.372246295E-01 -2.278447747E-01
 1.402386129E-01 -2.269488722E-01
 1.432879716E-01 -2.260943204E-01
 1.463730931E-01 -2.253087014E-01
 1.494943351E-01 -2.245644182E-01
 1.526521146E-01 -2.238752544E-01
 1.558467895E-01 -2.232274562E-01
 1.590787768E-01 -2.226347923E-01
 1.623484641E-01 -2.220834643E-01
 1.656562537E-01 -2.215735018E-01
 1.690025330E-01 -2.211186588E-01
 1.723877192E-01 -2.206913829E-01
 1.758122295E-01 -2.202916741E-01
 1.792764515E-01 -2.199470997E-01
 1.827808172E-01 -2.196300924E-01
 1.863257438E-01 -2.193406522E-01
 1.899116486E-01 -2.190787643E-01
 1.935389638E-01 -2.188582420E-01
 1.972081065E-01 -2.186515033E-01
 2.009195089E-01 -2.184861004E-01
 2.046736032E-01 -2.183344811E-01
 2.084708363E-01 -2.182242274E-01
 2.123116404E-01 -2.181277424E-01
 2.161964476E-01 -2.180450410E-01
 2.201257348E-01 -2.179899067E-01
 2.240999341E-01 -2.179623544E-01
 2.281194925E-01 -2.179485708E-01
 2.321848720E-01 -2.179485708E-01
 2.362965345E-01 -2.179623544E-01
 2.404549420E-01 -2.180036902E-01
 2.446605563E-01 -2.180588245E-01
 2.489138544E-01 -2.181139588E-01
 2.532152832E-01 -2.181966603E-01
 2.575653493E-01 -2.182931453E-01
 2.619645000E-01 -2.183896154E-01
 2.664132118E-01 -2.185136676E-01
 2.709120214E-01 -2.186377198E-01
 2.754613459E-01 -2.187755406E-01
 2.800617218E-01 -2.189271599E-01
 2.847136259E-01 -2.190925479E-01
 2.894175649E-01 -2.192579508E-01
 2.941739857E-01 -2.194371223E-01
 2.989834547E-01 -2.196163088E-01
 3.038464189E-01 -2.198092788E-01
 3.087634146E-01 -2.200160176E-01
 3.137349486E-01 -2.202227563E-01
 3.187615275E-01 -2.204295099E-01
 3.238436282E-01 -2.206500322E-01
 3.289818466E-01 -2.208843529E-01
 3.341766000E-01 -2.211186588E-01
 3.394284844E-01 -2.213529646E-01
 3.447380066E-01 -2.216010690E-01
 3.501056731E-01 -2.218491584E-01
 3.555320203E-01 -2.220972478E-01
 3.610175848E-01 -2.223591357E-01
 3.665628731E-01 -2.226210088E-01
 3.721684217E-01 -2.228966653E-01
 3.778347969E-01 -2.231723219E-01
 3.835625052E-01 -2.234479934E-01
 3.893520832E-01 -2.237374336E-01
 3.952040970E-01 -2.240268737E-01
 4.011190534E-01 -2.243163139E-01
 4.070975482E-01 -2.246195376E-01
 4.131400585E-01 -2.249227762E-01
 4.192471802E-01 -2.252260000E-01
 4.254194498E-01 -2.255292237E-01
 4.316574037E-01 -2.258462310E-01
 4.379616082E-01 -2.261632383E-01
 4.443325996E-01 -2.264940292E-01
 4.507709444E-01 -2.268110365E-01
 4.572771788E-01 -2.271418273E-01
 4.638518691E-01 -2.274726331E-01
 4.704955816E-01 -2.278172076E-01
 4.772088528E-01 -2.281617820E-01
 4.839922190E-01 -2.285063565E-01
 4.908462763E-01 -2.288509309E-01
 4.977715611E-01 -2.292092890E-01
 5.047686696E-01 -2.295676470E-01
 5.118380785E-01 -2.299397886E-01
 5.189803839E-01 -2.302981466E-01
 5.261961818E-01 -2.306702882E-01
 5.334859490E-01 -2.310424298E-01
 5.408502817E-01 -2.314283550E-01
 5.482897758E-01 -2.318142802E-01
 5.558049679E-01 -2.322002053E-01
 5.633963346E-01 -2.325861305E-01
 5.710645318E-01 -2.329858392E-01
 5.788100362E-01 -2.333855480E-01
 5.866334438E-01 -2.337990254E-01
 5.945352316E-01 -2.341987342E-01
 6.025160551E-01 -2.346122265E-01
 6.105763912E-01 -2.350395024E-01
 6.187167764E-01 -2.354529947E-01
 6.269378066E-01 -2.358802706E-01
 6.352399588E-01 -2.363075465E-01
 6.436238289E-01 -2.367485911E-01
 6.520899534E-01 -2.371896505E-01
 6.606387496E-01 -2.376307100E-01
 6.692708731E-01 -2.380855531E-01
 6.779868007E-01 -2.385403812E-01
 6.867870688E-01 -2.389952242E-01
 6.956722140E-01 -2.394638509E-01
 7.046427131E-01 -2.399324775E-01
 7.136990428E-01 -2.404010892E-01
 7.228417993E-01 -2.408834994E-01
 7.320714593E-01 -2.413659096E-01
 7.413884997E-01 -2.418483049E-01
 7.507934570E-01 -2.423444986E-01
 7.602867484E-01 -2.428406924E-01
 7.698689699E-01 -2.433506548E-01
 7.795404792E-01 -2.438468486E-01
 7.893018126E-01 -2.443568259E-01
 7.991534472E-01 -2.448805720E-01
 8.090957999E-01 -2.454043329E-01
 8.191294074E-01 -2.459280789E-01
 8.292546272E-01 -2.464656234E-01
 8.394719958E-01 -2.470031530E-01
 8.497819304E-01 -2.475406975E-01
 8.601847887E-01 -2.480920106E-01
 8.706811070E-01 -2.486433387E-01
 8.812711835E-01 -2.492084354E-01
 8.919555545E-01 -2.497597635E-01
 9.027345181E-01 -2.503386438E-01
 9.136084914E-01 -2.509037554E-01
 9.245778918E-01 -2.514826357E-01
 9.356430769E-01 -2.520753145E-01
 9.468044043E-01 -2.526679635E-01
 9.580622315E-01 -2.532606423E-01
 9.694169164E-01 -2.538533211E-01
 9.808688760E-01 -2.544597685E-01
 9.924182892E-01 -2.550799847E-01
 1.004065633E+00 -2.557002306E-01
 1.015811086E+00 -2.563204765E-01
 1.027655005E+00 -2.569406927E-01
 1.039597631E+00 -2.575747371E-01
 1.051639438E+00 -2.582225204E-01
 1.063780427E+00 -2.588565350E-01
 1.076020956E+00 -2.595181167E-01
 1.088361382E+00 -2.601659298E-01
 1.100801706E+00 -2.608275115E-01
 1.113342404E+00 -2.615028918E-01
 1.125983477E+00 -2.621644735E-01
 1.138725162E+00 -2.628536224E-01
 1.151567817E+00 -2.635289729E-01
 1.164511323E+00 -2.642181218E-01
 1.177556038E+00 -2.649210691E-01
 1.190702081E+00 -2.656102180E-01
 1.203949571E+00 -2.663269341E-01
 1.217298508E+00 -2.670298815E-01
 1.230749011E+00 -2.677465975E-01
 1.244301319E+00 -2.684770823E-01
 1.257955432E+00 -2.692075968E-01
 1.271711349E+00 -2.699380815E-01
 1.285569072E+00 -2.706823647E-01
 1.299528718E+00 -2.714266479E-01
 1.313590288E+00 -2.721709311E-01
 1.327753663E+00 -2.729290128E-01
 1.342018962E+00 -2.736870646E-01
 1.356386065E+00 -2.744589150E-01
 1.370854855E+00 -2.752307653E-01
 1.385425329E+00 -2.760026157E-01
 1.400097370E+00 -2.767882347E-01
 1.414870858E+00 -2.775738835E-01
 1.429745674E+00 -2.783733010E-01
 1.444721699E+00 -2.791727185E-01
 1.459798694E+00 -2.799721062E-01
 1.474976540E+00 -2.807853222E-01
 1.490254998E+00 -2.815985084E-01
 1.505633831E+00 -2.824254930E-01
 1.521112800E+00 -2.832524776E-01
 1.536691666E+00 -2.840656638E-01
 1.552370071E+00 -2.848788798E-01
 1.568147898E+00 -2.856920660E-01
 1.584024668E+00 -2.865603864E-01
 1.600000024E+00 -2.870014608E-01
