# velocity at x=-0.166124 from A3D, Smits convex curvature case, GLVY model
# Cartesian u and v have been used to obtain rotated u_p (relative to streamwise direction)
# Dimensional u_p is given here (making use of U_ref=31.9 m/s)
VARIABLES = "d, m","u_p, m/s"
  0.0000000E+00  0.3820193E-12
  0.1144144E-03  0.1099866E+02
  0.2288288E-03  0.1534584E+02
  0.3432432E-03  0.1779312E+02
  0.4576577E-03  0.1916295E+02
  0.5720721E-03  0.2013126E+02
  0.6864865E-03  0.2087095E+02
  0.8009009E-03  0.2146273E+02
  0.9153153E-03  0.2195103E+02
  0.1029730E-02  0.2236704E+02
  0.1144144E-02  0.2272800E+02
  0.1258559E-02  0.2304761E+02
  0.1372973E-02  0.2333413E+02
  0.1487387E-02  0.2359356E+02
  0.1601802E-02  0.2383054E+02
  0.1716216E-02  0.2404870E+02
  0.1830631E-02  0.2425047E+02
  0.1945045E-02  0.2443819E+02
  0.2059459E-02  0.2461403E+02
  0.2173874E-02  0.2477866E+02
  0.2288288E-02  0.2493409E+02
  0.2402703E-02  0.2508109E+02
  0.2517117E-02  0.2522030E+02
  0.2631532E-02  0.2535294E+02
  0.2745946E-02  0.2547923E+02
  0.2860360E-02  0.2560017E+02
  0.2974775E-02  0.2571606E+02
  0.3089189E-02  0.2582754E+02
  0.3203604E-02  0.2593510E+02
  0.3318018E-02  0.2603900E+02
  0.3432432E-02  0.2613977E+02
  0.3546847E-02  0.2623754E+02
  0.3661261E-02  0.2633260E+02
  0.3775676E-02  0.2642513E+02
  0.3890090E-02  0.2651519E+02
  0.4004505E-02  0.2660290E+02
  0.4118919E-02  0.2668837E+02
  0.4233333E-02  0.2677167E+02
  0.4347748E-02  0.2685296E+02
  0.4462162E-02  0.2693239E+02
  0.4576577E-02  0.2701013E+02
  0.4690991E-02  0.2708636E+02
  0.4805405E-02  0.2716126E+02
  0.4919820E-02  0.2723502E+02
  0.5034234E-02  0.2730777E+02
  0.5148649E-02  0.2737966E+02
  0.5263063E-02  0.2745074E+02
  0.5377477E-02  0.2752101E+02
  0.5491892E-02  0.2759051E+02
  0.5606306E-02  0.2765922E+02
  0.5720721E-02  0.2772716E+02
  0.5835135E-02  0.2779435E+02
  0.5949550E-02  0.2786082E+02
  0.6063964E-02  0.2792666E+02
  0.6178378E-02  0.2799189E+02
  0.6292793E-02  0.2805656E+02
  0.6407207E-02  0.2812069E+02
  0.6521622E-02  0.2818432E+02
  0.6636036E-02  0.2824747E+02
  0.6750450E-02  0.2831021E+02
  0.6864865E-02  0.2837258E+02
  0.6979279E-02  0.2843467E+02
  0.7093694E-02  0.2849654E+02
  0.7208108E-02  0.2855826E+02
  0.7322523E-02  0.2861991E+02
  0.7436937E-02  0.2868154E+02
  0.7551351E-02  0.2874320E+02
  0.7665766E-02  0.2880496E+02
  0.7780180E-02  0.2886685E+02
  0.7894595E-02  0.2892892E+02
  0.8009009E-02  0.2899121E+02
  0.8123423E-02  0.2905377E+02
  0.8237838E-02  0.2911665E+02
  0.8352252E-02  0.2917989E+02
  0.8466667E-02  0.2924350E+02
  0.8581081E-02  0.2930754E+02
  0.8695495E-02  0.2937203E+02
  0.8809910E-02  0.2943702E+02
  0.8924324E-02  0.2950254E+02
  0.9038739E-02  0.2956863E+02
  0.9153153E-02  0.2963530E+02
  0.9267568E-02  0.2970256E+02
  0.9381982E-02  0.2977044E+02
  0.9496396E-02  0.2983894E+02
  0.9610811E-02  0.2990812E+02
  0.9725225E-02  0.2997797E+02
  0.9839640E-02  0.3004847E+02
  0.9954054E-02  0.3011962E+02
  0.1006847E-01  0.3019140E+02
  0.1018288E-01  0.3026375E+02
  0.1029730E-01  0.3033662E+02
  0.1041171E-01  0.3041006E+02
  0.1052613E-01  0.3048395E+02
  0.1064054E-01  0.3055819E+02
  0.1075495E-01  0.3063265E+02
  0.1086937E-01  0.3070721E+02
  0.1098378E-01  0.3078170E+02
  0.1109820E-01  0.3085596E+02
  0.1121261E-01  0.3092981E+02
  0.1132703E-01  0.3100305E+02
  0.1144144E-01  0.3107549E+02
  0.1155586E-01  0.3114697E+02
  0.1167027E-01  0.3121720E+02
  0.1178468E-01  0.3128585E+02
  0.1189910E-01  0.3135274E+02
  0.1201351E-01  0.3141782E+02
  0.1212793E-01  0.3148094E+02
  0.1224234E-01  0.3154187E+02
  0.1235676E-01  0.3160058E+02
  0.1247117E-01  0.3165709E+02
  0.1258559E-01  0.3171141E+02
  0.1270000E-01  0.3176363E+02
  0.1281441E-01  0.3181384E+02
  0.1292883E-01  0.3186214E+02
  0.1304324E-01  0.3190859E+02
  0.1315766E-01  0.3195354E+02
  0.1327207E-01  0.3199718E+02
  0.1338649E-01  0.3203970E+02
  0.1350090E-01  0.3208121E+02
  0.1361532E-01  0.3212189E+02
  0.1372973E-01  0.3216192E+02
  0.1384414E-01  0.3220145E+02
  0.1395856E-01  0.3224060E+02
  0.1407297E-01  0.3227947E+02
  0.1418739E-01  0.3231825E+02
  0.1430180E-01  0.3235699E+02
  0.1441622E-01  0.3239586E+02
  0.1453063E-01  0.3243491E+02
  0.1464505E-01  0.3247417E+02
  0.1475946E-01  0.3251370E+02
  0.1487387E-01  0.3255352E+02
  0.1498829E-01  0.3259361E+02
  0.1510270E-01  0.3263400E+02
  0.1521712E-01  0.3267466E+02
  0.1533153E-01  0.3271561E+02
  0.1544595E-01  0.3275678E+02
  0.1556036E-01  0.3279811E+02
  0.1567477E-01  0.3283958E+02
  0.1578919E-01  0.3288116E+02
  0.1590360E-01  0.3292280E+02
  0.1601802E-01  0.3296444E+02
  0.1613243E-01  0.3300605E+02
  0.1624685E-01  0.3304756E+02
  0.1636126E-01  0.3308891E+02
  0.1647568E-01  0.3313007E+02
  0.1659009E-01  0.3317095E+02
  0.1670450E-01  0.3321147E+02
  0.1681892E-01  0.3325156E+02
  0.1693333E-01  0.3329115E+02
  0.1704775E-01  0.3333021E+02
  0.1716216E-01  0.3336868E+02
  0.1727658E-01  0.3340650E+02
  0.1739099E-01  0.3344356E+02
  0.1750541E-01  0.3347977E+02
  0.1761982E-01  0.3351514E+02
  0.1773423E-01  0.3354962E+02
  0.1784865E-01  0.3358319E+02
  0.1796306E-01  0.3361582E+02
  0.1807748E-01  0.3364750E+02
  0.1819189E-01  0.3367822E+02
  0.1830631E-01  0.3370797E+02
  0.1842072E-01  0.3373675E+02
  0.1853514E-01  0.3376454E+02
  0.1864955E-01  0.3379137E+02
  0.1876396E-01  0.3381723E+02
  0.1887838E-01  0.3384214E+02
  0.1899279E-01  0.3386612E+02
  0.1910721E-01  0.3388916E+02
  0.1922162E-01  0.3391128E+02
  0.1933604E-01  0.3393254E+02
  0.1945045E-01  0.3395294E+02
  0.1956486E-01  0.3397252E+02
  0.1967928E-01  0.3399131E+02
  0.1979369E-01  0.3400933E+02
  0.1990811E-01  0.3402660E+02
  0.2002252E-01  0.3404313E+02
  0.2013694E-01  0.3405895E+02
  0.2025135E-01  0.3407408E+02
  0.2036577E-01  0.3408853E+02
  0.2048018E-01  0.3410232E+02
  0.2059459E-01  0.3411548E+02
  0.2070901E-01  0.3412804E+02
  0.2082342E-01  0.3414000E+02
  0.2093784E-01  0.3415141E+02
  0.2105225E-01  0.3416232E+02
  0.2116667E-01  0.3417274E+02
  0.2128108E-01  0.3418268E+02
  0.2139550E-01  0.3419217E+02
  0.2150991E-01  0.3420123E+02
  0.2162432E-01  0.3420988E+02
  0.2173874E-01  0.3421812E+02
  0.2185315E-01  0.3422597E+02
  0.2196757E-01  0.3423346E+02
  0.2208198E-01  0.3424060E+02
  0.2219640E-01  0.3424740E+02
  0.2231081E-01  0.3425387E+02
  0.2242523E-01  0.3426004E+02
  0.2253964E-01  0.3426593E+02
  0.2265405E-01  0.3427158E+02
  0.2276847E-01  0.3427701E+02
  0.2288288E-01  0.3428220E+02
  0.2299730E-01  0.3428719E+02
  0.2311171E-01  0.3429198E+02
  0.2322613E-01  0.3429659E+02
  0.2334054E-01  0.3430100E+02
  0.2345495E-01  0.3430519E+02
  0.2356937E-01  0.3430918E+02
  0.2368378E-01  0.3431298E+02
  0.2379820E-01  0.3431658E+02
  0.2391261E-01  0.3432001E+02
  0.2402703E-01  0.3432326E+02
  0.2414144E-01  0.3432635E+02
  0.2425586E-01  0.3432927E+02
  0.2437027E-01  0.3433202E+02
  0.2448468E-01  0.3433465E+02
  0.2459910E-01  0.3433716E+02
  0.2471351E-01  0.3433952E+02
  0.2482793E-01  0.3434173E+02
  0.2494234E-01  0.3434386E+02
  0.2505676E-01  0.3434593E+02
  0.2517117E-01  0.3434789E+02
  0.2528559E-01  0.3434979E+02
  0.2540000E-01  0.3435163E+02
  0.2551441E-01  0.3435341E+02
  0.2562883E-01  0.3435516E+02
  0.2574324E-01  0.3435681E+02
  0.2585766E-01  0.3435840E+02
  0.2597207E-01  0.3435995E+02
  0.2608649E-01  0.3436137E+02
  0.2620090E-01  0.3436260E+02
  0.2631532E-01  0.3436367E+02
  0.2642973E-01  0.3436460E+02
  0.2654414E-01  0.3436541E+02
  0.2665856E-01  0.3436606E+02
  0.2677297E-01  0.3436654E+02
  0.2688739E-01  0.3436693E+02
  0.2700180E-01  0.3436728E+02
  0.2711622E-01  0.3436764E+02
  0.2723063E-01  0.3436799E+02
  0.2734505E-01  0.3436832E+02
  0.2745946E-01  0.3436861E+02
  0.2757387E-01  0.3436892E+02
  0.2768829E-01  0.3436924E+02
  0.2780270E-01  0.3436955E+02
  0.2791712E-01  0.3436980E+02
  0.2803153E-01  0.3436994E+02
  0.2814595E-01  0.3436989E+02
  0.2826036E-01  0.3436971E+02
  0.2837477E-01  0.3436946E+02
  0.2848919E-01  0.3436907E+02
  0.2860360E-01  0.3436848E+02
  0.2871802E-01  0.3436773E+02
  0.2883243E-01  0.3436693E+02
  0.2894685E-01  0.3436626E+02
  0.2906126E-01  0.3436583E+02
  0.2917568E-01  0.3436538E+02
  0.2929009E-01  0.3436508E+02
  0.2940450E-01  0.3436491E+02
  0.2951892E-01  0.3436493E+02
  0.2963333E-01  0.3436515E+02
  0.2974775E-01  0.3436543E+02
  0.2986216E-01  0.3436554E+02
  0.2997658E-01  0.3436571E+02
  0.3009099E-01  0.3436593E+02
  0.3020541E-01  0.3436600E+02
  0.3031982E-01  0.3436590E+02
  0.3043423E-01  0.3436569E+02
  0.3054865E-01  0.3436536E+02
  0.3066306E-01  0.3436496E+02
  0.3077748E-01  0.3436459E+02
  0.3089189E-01  0.3436404E+02
  0.3100631E-01  0.3436343E+02
  0.3112072E-01  0.3436285E+02
  0.3123514E-01  0.3436235E+02
  0.3134955E-01  0.3436191E+02
  0.3146396E-01  0.3436147E+02
  0.3157838E-01  0.3436104E+02
  0.3169279E-01  0.3436061E+02
  0.3180721E-01  0.3436024E+02
  0.3192162E-01  0.3435989E+02
  0.3203604E-01  0.3435952E+02
  0.3215045E-01  0.3435911E+02
  0.3226486E-01  0.3435866E+02
  0.3237928E-01  0.3435817E+02
  0.3249369E-01  0.3435766E+02
  0.3260811E-01  0.3435713E+02
  0.3272252E-01  0.3435658E+02
  0.3283694E-01  0.3435601E+02
  0.3295135E-01  0.3435540E+02
  0.3306577E-01  0.3435477E+02
  0.3318018E-01  0.3435412E+02
  0.3329459E-01  0.3435343E+02
  0.3340901E-01  0.3435273E+02
  0.3352342E-01  0.3435201E+02
  0.3363784E-01  0.3435127E+02
  0.3375225E-01  0.3435050E+02
  0.3386667E-01  0.3434971E+02
  0.3398108E-01  0.3434890E+02
  0.3409550E-01  0.3434807E+02
  0.3420991E-01  0.3434726E+02
  0.3432432E-01  0.3434648E+02
  0.3443874E-01  0.3434573E+02
  0.3455315E-01  0.3434498E+02
  0.3466757E-01  0.3434427E+02
  0.3478198E-01  0.3434357E+02
  0.3489640E-01  0.3434289E+02
  0.3501081E-01  0.3434225E+02
  0.3512523E-01  0.3434162E+02
  0.3523964E-01  0.3434102E+02
  0.3535405E-01  0.3434042E+02
  0.3546847E-01  0.3433986E+02
  0.3558288E-01  0.3433930E+02
  0.3569730E-01  0.3433876E+02
  0.3581171E-01  0.3433823E+02
  0.3592613E-01  0.3433771E+02
  0.3604054E-01  0.3433721E+02
  0.3615495E-01  0.3433672E+02
  0.3626937E-01  0.3433622E+02
  0.3638378E-01  0.3433573E+02
  0.3649820E-01  0.3433525E+02
  0.3661261E-01  0.3433475E+02
  0.3672703E-01  0.3433422E+02
  0.3684144E-01  0.3433368E+02
  0.3695586E-01  0.3433312E+02
  0.3707027E-01  0.3433254E+02
  0.3718468E-01  0.3433195E+02
  0.3729910E-01  0.3433133E+02
  0.3741351E-01  0.3433070E+02
  0.3752793E-01  0.3433004E+02
  0.3764234E-01  0.3432936E+02
  0.3775676E-01  0.3432868E+02
  0.3787117E-01  0.3432798E+02
  0.3798559E-01  0.3432727E+02
  0.3810000E-01  0.3432655E+02
  0.3821441E-01  0.3432581E+02
  0.3832883E-01  0.3432506E+02
  0.3844324E-01  0.3432429E+02
  0.3855766E-01  0.3432351E+02
  0.3867207E-01  0.3432271E+02
  0.3878649E-01  0.3432191E+02
  0.3890090E-01  0.3432110E+02
  0.3901532E-01  0.3432028E+02
  0.3912973E-01  0.3431945E+02
  0.3924414E-01  0.3431862E+02
  0.3935856E-01  0.3431777E+02
  0.3947297E-01  0.3431692E+02
  0.3958739E-01  0.3431607E+02
  0.3970180E-01  0.3431522E+02
  0.3981622E-01  0.3431437E+02
  0.3993063E-01  0.3431352E+02
  0.4004505E-01  0.3431264E+02
  0.4015946E-01  0.3431174E+02
  0.4027387E-01  0.3431081E+02
  0.4038829E-01  0.3430988E+02
  0.4050270E-01  0.3430894E+02
  0.4061712E-01  0.3430798E+02
  0.4073153E-01  0.3430700E+02
  0.4084595E-01  0.3430600E+02
  0.4096036E-01  0.3430498E+02
  0.4107477E-01  0.3430397E+02
  0.4118919E-01  0.3430299E+02
  0.4130360E-01  0.3430202E+02
  0.4141802E-01  0.3430105E+02
  0.4153243E-01  0.3430010E+02
  0.4164685E-01  0.3429920E+02
  0.4176126E-01  0.3429833E+02
  0.4187568E-01  0.3429749E+02
  0.4199009E-01  0.3429667E+02
  0.4210450E-01  0.3429588E+02
  0.4221892E-01  0.3429511E+02
  0.4233333E-01  0.3429437E+02
  0.4244775E-01  0.3429366E+02
  0.4256216E-01  0.3429298E+02
  0.4267658E-01  0.3429231E+02
  0.4279099E-01  0.3429165E+02
  0.4290541E-01  0.3429099E+02
  0.4301982E-01  0.3429034E+02
  0.4313423E-01  0.3428971E+02
  0.4324865E-01  0.3428908E+02
  0.4336306E-01  0.3428846E+02
  0.4347748E-01  0.3428787E+02
  0.4359189E-01  0.3428728E+02
  0.4370631E-01  0.3428668E+02
  0.4382072E-01  0.3428605E+02
  0.4393514E-01  0.3428539E+02
  0.4404955E-01  0.3428469E+02
  0.4416396E-01  0.3428395E+02
  0.4427838E-01  0.3428317E+02
  0.4439279E-01  0.3428237E+02
  0.4450721E-01  0.3428154E+02
  0.4462162E-01  0.3428068E+02
  0.4473604E-01  0.3427977E+02
  0.4485045E-01  0.3427883E+02
  0.4496486E-01  0.3427786E+02
  0.4507928E-01  0.3427687E+02
  0.4519369E-01  0.3427587E+02
  0.4530811E-01  0.3427486E+02
  0.4542252E-01  0.3427386E+02
  0.4553694E-01  0.3427285E+02
  0.4565135E-01  0.3427185E+02
  0.4576577E-01  0.3427083E+02
  0.4588018E-01  0.3426981E+02
  0.4599459E-01  0.3426878E+02
  0.4610901E-01  0.3426775E+02
  0.4622342E-01  0.3426673E+02
  0.4633784E-01  0.3426572E+02
  0.4645225E-01  0.3426475E+02
  0.4656667E-01  0.3426379E+02
  0.4668108E-01  0.3426285E+02
  0.4679550E-01  0.3426193E+02
  0.4690991E-01  0.3426105E+02
  0.4702432E-01  0.3426019E+02
  0.4713874E-01  0.3425935E+02
  0.4725315E-01  0.3425855E+02
  0.4736757E-01  0.3425776E+02
  0.4748198E-01  0.3425700E+02
  0.4759640E-01  0.3425626E+02
  0.4771081E-01  0.3425555E+02
  0.4782523E-01  0.3425486E+02
  0.4793964E-01  0.3425419E+02
  0.4805405E-01  0.3425354E+02
  0.4816847E-01  0.3425289E+02
  0.4828288E-01  0.3425226E+02
  0.4839730E-01  0.3425164E+02
  0.4851171E-01  0.3425104E+02
  0.4862613E-01  0.3425044E+02
  0.4874054E-01  0.3424986E+02
  0.4885495E-01  0.3424929E+02
  0.4896937E-01  0.3424872E+02
  0.4908378E-01  0.3424814E+02
  0.4919820E-01  0.3424752E+02
  0.4931261E-01  0.3424686E+02
  0.4942703E-01  0.3424617E+02
  0.4954144E-01  0.3424546E+02
  0.4965586E-01  0.3424471E+02
  0.4977027E-01  0.3424395E+02
  0.4988468E-01  0.3424314E+02
  0.4999910E-01  0.3424230E+02
  0.5011351E-01  0.3424142E+02
  0.5022793E-01  0.3424052E+02
  0.5034234E-01  0.3423959E+02
  0.5045676E-01  0.3423865E+02
  0.5057117E-01  0.3423768E+02
  0.5068559E-01  0.3423671E+02
  0.5080000E-01  0.3423573E+02
  0.5091441E-01  0.3423473E+02
  0.5102883E-01  0.3423372E+02
  0.5114324E-01  0.3423269E+02
  0.5125766E-01  0.3423164E+02
  0.5137207E-01  0.3423059E+02
  0.5148649E-01  0.3422952E+02
  0.5160090E-01  0.3422844E+02
  0.5171532E-01  0.3422735E+02
  0.5182973E-01  0.3422625E+02
  0.5194414E-01  0.3422513E+02
  0.5205856E-01  0.3422401E+02
  0.5217297E-01  0.3422287E+02
  0.5228739E-01  0.3422172E+02
  0.5240180E-01  0.3422056E+02
  0.5251622E-01  0.3421940E+02
  0.5263063E-01  0.3421822E+02
  0.5274505E-01  0.3421705E+02
  0.5285946E-01  0.3421586E+02
  0.5297387E-01  0.3421467E+02
  0.5308829E-01  0.3421347E+02
  0.5320270E-01  0.3421227E+02
  0.5331712E-01  0.3421107E+02
  0.5343153E-01  0.3420986E+02
  0.5354595E-01  0.3420865E+02
  0.5366036E-01  0.3420744E+02
  0.5377477E-01  0.3420623E+02
  0.5388919E-01  0.3420502E+02
  0.5400360E-01  0.3420381E+02
  0.5411802E-01  0.3420261E+02
  0.5423243E-01  0.3420142E+02
  0.5434685E-01  0.3420022E+02
  0.5446126E-01  0.3419903E+02
  0.5457568E-01  0.3419785E+02
  0.5469009E-01  0.3419669E+02
  0.5480450E-01  0.3419556E+02
  0.5491892E-01  0.3419445E+02
  0.5503333E-01  0.3419337E+02
  0.5514775E-01  0.3419230E+02
  0.5526216E-01  0.3419124E+02
  0.5537658E-01  0.3419021E+02
  0.5549099E-01  0.3418920E+02
  0.5560541E-01  0.3418822E+02
  0.5571982E-01  0.3418725E+02
  0.5583423E-01  0.3418629E+02
  0.5594865E-01  0.3418535E+02
  0.5606306E-01  0.3418442E+02
  0.5617748E-01  0.3418349E+02
  0.5629189E-01  0.3418257E+02
  0.5640631E-01  0.3418166E+02
  0.5652072E-01  0.3418075E+02
  0.5663514E-01  0.3417985E+02
  0.5674955E-01  0.3417895E+02
  0.5686396E-01  0.3417806E+02
  0.5697838E-01  0.3417718E+02
  0.5709279E-01  0.3417629E+02
  0.5720721E-01  0.3417541E+02
  0.5732162E-01  0.3417452E+02
  0.5743604E-01  0.3417362E+02
  0.5755045E-01  0.3417271E+02
  0.5766486E-01  0.3417178E+02
  0.5777928E-01  0.3417085E+02
  0.5789369E-01  0.3416990E+02
  0.5800811E-01  0.3416895E+02
  0.5812252E-01  0.3416798E+02
  0.5823694E-01  0.3416700E+02
  0.5835135E-01  0.3416601E+02
  0.5846577E-01  0.3416500E+02
  0.5858018E-01  0.3416398E+02
  0.5869459E-01  0.3416295E+02
  0.5880901E-01  0.3416189E+02
  0.5892342E-01  0.3416083E+02
  0.5903784E-01  0.3415975E+02
  0.5915225E-01  0.3415865E+02
  0.5926667E-01  0.3415755E+02
  0.5938108E-01  0.3415643E+02
  0.5949550E-01  0.3415529E+02
  0.5960991E-01  0.3415414E+02
  0.5972432E-01  0.3415297E+02
  0.5983874E-01  0.3415181E+02
  0.5995315E-01  0.3415063E+02
  0.6006757E-01  0.3414945E+02
  0.6018198E-01  0.3414825E+02
  0.6029640E-01  0.3414707E+02
  0.6041081E-01  0.3414588E+02
  0.6052523E-01  0.3414471E+02
  0.6063964E-01  0.3414354E+02
  0.6075405E-01  0.3414238E+02
  0.6086847E-01  0.3414123E+02
  0.6098288E-01  0.3414008E+02
  0.6109730E-01  0.3413894E+02
  0.6121171E-01  0.3413781E+02
  0.6132613E-01  0.3413669E+02
  0.6144054E-01  0.3413558E+02
  0.6155495E-01  0.3413448E+02
  0.6166937E-01  0.3413338E+02
  0.6178378E-01  0.3413230E+02
  0.6189820E-01  0.3413123E+02
  0.6201261E-01  0.3413017E+02
  0.6212703E-01  0.3412912E+02
  0.6224144E-01  0.3412808E+02
  0.6235586E-01  0.3412705E+02
  0.6247027E-01  0.3412604E+02
  0.6258468E-01  0.3412504E+02
  0.6269910E-01  0.3412406E+02
  0.6281351E-01  0.3412309E+02
  0.6292793E-01  0.3412213E+02
  0.6304234E-01  0.3412119E+02
  0.6315676E-01  0.3412026E+02
  0.6327117E-01  0.3411935E+02
  0.6338559E-01  0.3411845E+02
  0.6350000E-01  0.3411757E+02
  0.6361441E-01  0.3411670E+02
  0.6372883E-01  0.3411585E+02
  0.6384324E-01  0.3411501E+02
  0.6395766E-01  0.3411419E+02
  0.6407207E-01  0.3411338E+02
  0.6418649E-01  0.3411258E+02
  0.6430090E-01  0.3411181E+02
  0.6441532E-01  0.3411105E+02
  0.6452973E-01  0.3411032E+02
  0.6464414E-01  0.3410960E+02
  0.6475856E-01  0.3410890E+02
  0.6487297E-01  0.3410822E+02
  0.6498739E-01  0.3410755E+02
  0.6510180E-01  0.3410691E+02
  0.6521622E-01  0.3410628E+02
  0.6533063E-01  0.3410568E+02
  0.6544505E-01  0.3410509E+02
  0.6555946E-01  0.3410450E+02
  0.6567387E-01  0.3410392E+02
  0.6578829E-01  0.3410335E+02
  0.6590270E-01  0.3410280E+02
  0.6601712E-01  0.3410224E+02
  0.6613153E-01  0.3410168E+02
  0.6624595E-01  0.3410111E+02
  0.6636036E-01  0.3410054E+02
  0.6647477E-01  0.3409997E+02
  0.6658919E-01  0.3409940E+02
  0.6670360E-01  0.3409883E+02
  0.6681802E-01  0.3409826E+02
  0.6693243E-01  0.3409768E+02
  0.6704685E-01  0.3409709E+02
  0.6716126E-01  0.3409651E+02
  0.6727568E-01  0.3409593E+02
  0.6739009E-01  0.3409535E+02
  0.6750450E-01  0.3409479E+02
  0.6761892E-01  0.3409424E+02
  0.6773333E-01  0.3409369E+02
  0.6784775E-01  0.3409314E+02
  0.6796216E-01  0.3409260E+02
  0.6807658E-01  0.3409207E+02
  0.6819099E-01  0.3409154E+02
  0.6830541E-01  0.3409101E+02
  0.6841982E-01  0.3409049E+02
  0.6853423E-01  0.3408998E+02
  0.6864865E-01  0.3408946E+02
  0.6876306E-01  0.3408895E+02
  0.6887748E-01  0.3408843E+02
  0.6899189E-01  0.3408791E+02
  0.6910631E-01  0.3408739E+02
  0.6922072E-01  0.3408687E+02
  0.6933514E-01  0.3408635E+02
  0.6944955E-01  0.3408583E+02
  0.6956396E-01  0.3408531E+02
  0.6967838E-01  0.3408478E+02
  0.6979279E-01  0.3408426E+02
  0.6990721E-01  0.3408373E+02
  0.7002162E-01  0.3408320E+02
  0.7013604E-01  0.3408267E+02
  0.7025045E-01  0.3408214E+02
  0.7036486E-01  0.3408161E+02
  0.7047928E-01  0.3408108E+02
  0.7059369E-01  0.3408055E+02
  0.7070811E-01  0.3408001E+02
  0.7082252E-01  0.3407947E+02
  0.7093694E-01  0.3407894E+02
  0.7105135E-01  0.3407840E+02
  0.7116577E-01  0.3407786E+02
  0.7128018E-01  0.3407732E+02
  0.7139459E-01  0.3407677E+02
  0.7150901E-01  0.3407622E+02
  0.7162342E-01  0.3407567E+02
  0.7173784E-01  0.3407511E+02
  0.7185225E-01  0.3407455E+02
  0.7196667E-01  0.3407399E+02
  0.7208108E-01  0.3407342E+02
  0.7219550E-01  0.3407284E+02
  0.7230991E-01  0.3407226E+02
  0.7242432E-01  0.3407168E+02
  0.7253874E-01  0.3407110E+02
  0.7265315E-01  0.3407052E+02
