TITLE     = "u-velocity normalized by centerline u-velocity at x=40.0, diagonal cut (y=z)"
VARIABLES = "2z/D","u/u_CL"
ZONE T="FUN3D, grid 1 diagonal cut"
    0.850000015E-05    0.189647921E-06
    0.170000003E-04    0.100543366E-05
    0.258523996E-04    0.230064847E-05
    0.347048008E-04    0.430270166E-05
    0.439241994E-04    0.688624186E-05
    0.531436017E-04    0.102505992E-04
    0.627453992E-04    0.143039551E-04
    0.723470002E-04    0.192145744E-04
    0.823467999E-04    0.249316490E-04
    0.923464031E-04    0.315870347E-04
    0.102760801E-03    0.391782014E-04
    0.113175200E-03    0.477948634E-04
    0.124021200E-03    0.574898113E-04
    0.134867398E-03    0.683035905E-04
    0.146163206E-03    0.803528528E-04
    0.157458999E-03    0.936224460E-04
    0.169223000E-03    0.108300490E-03
    0.180987205E-03    0.124308819E-03
    0.193239000E-03    0.141915763E-03
    0.205489996E-03    0.160972573E-03
    0.218250003E-03    0.181838012E-03
    0.231009995E-03    0.204281634E-03
    0.244299998E-03    0.228765755E-03
    0.257587992E-03    0.254967774E-03
    0.271427998E-03    0.283464324E-03
    0.285268005E-03    0.313831639E-03
    0.299681997E-03    0.346772285E-03
    0.314094010E-03    0.381745835E-03
    0.329105998E-03    0.419603952E-03
    0.344116008E-03    0.459672912E-03
    0.359750004E-03    0.502961862E-03
    0.375383999E-03    0.548657030E-03
    0.391665992E-03    0.597942562E-03
    0.407948013E-03    0.649844413E-03
    0.424903992E-03    0.705741986E-03
    0.441860000E-03    0.764489174E-03
    0.459520001E-03    0.827672542E-03
    0.477180001E-03    0.893953489E-03
    0.495571992E-03    0.965163519E-03
    0.513963983E-03    0.103973644E-02
    0.533117971E-03    0.111977221E-02
    0.552272017E-03    0.120346842E-02
    0.572221994E-03    0.129321090E-02
    0.592169992E-03    0.138693163E-02
    0.612945994E-03    0.148733729E-02
    0.633720017E-03    0.159206847E-02
    0.655358017E-03    0.170418737E-02
    0.676993979E-03    0.182100502E-02
    0.699528027E-03    0.194597489E-02
    0.722062017E-03    0.207605446E-02
    0.745530007E-03    0.221512327E-02
    0.768999977E-03    0.235974556E-02
    0.793439976E-03    0.251427269E-02
    0.817882013E-03    0.267483131E-02
    0.843335991E-03    0.284629827E-02
    0.868790026E-03    0.302433362E-02
    0.895300007E-03    0.321435346E-02
    0.921809988E-03    0.341148977E-02
    0.949419977E-03    0.362180942E-02
    0.977028045E-03    0.383988745E-02
    0.100578205E-02    0.407246128E-02
    0.103453605E-02    0.431346381E-02
    0.106448203E-02    0.457036309E-02
    0.109442801E-02    0.483639026E-02
    0.112561404E-02    0.511991791E-02
    0.115680206E-02    0.541333295E-02
    0.118928205E-02    0.572593976E-02
    0.122176204E-02    0.604933826E-02
    0.125559000E-02    0.639373623E-02
    0.128941599E-02    0.674985908E-02
    0.132464594E-02    0.712899491E-02
    0.135987601E-02    0.752087543E-02
    0.139656605E-02    0.793798547E-02
    0.143325597E-02    0.836892053E-02
    0.147146604E-02    0.882747676E-02
    0.150967797E-02    0.930108223E-02
    0.154947396E-02    0.980487559E-02
    0.158926798E-02    0.103250314E-01
    0.163071405E-02    0.108782612E-01
    0.167216000E-02    0.114492541E-01
    0.171532400E-02    0.120564131E-01
    0.175848603E-02    0.126828523E-01
    0.180344004E-02    0.133488392E-01
    0.184839405E-02    0.140357977E-01
    0.189521001E-02    0.147659825E-01
    0.194202794E-02    0.155189447E-01
    0.199078605E-02    0.163191576E-01
    0.203954009E-02    0.171441324E-01
    0.209031999E-02    0.180207323E-01
    0.214109989E-02    0.189241935E-01
    0.219397992E-02    0.198840331E-01
    0.224687997E-02    0.208731275E-01
    0.230194000E-02    0.219237339E-01
    0.235702004E-02    0.230061319E-01
    0.241437997E-02    0.241557006E-01
    0.247173989E-02    0.253397748E-01
    0.253148004E-02    0.265971124E-01
    0.259121996E-02    0.278919619E-01
    0.265343999E-02    0.292668417E-01
    0.271566003E-02    0.306822900E-01
    0.278046005E-02    0.321846567E-01
    0.284524006E-02    0.337316506E-01
    0.291271997E-02    0.353731401E-01
    0.298021990E-02    0.370627567E-01
    0.305048004E-02    0.388553329E-01
    0.312075997E-02    0.407001115E-01
    0.319396006E-02    0.426568948E-01
    0.326715992E-02    0.446699634E-01
    0.334338006E-02    0.468043722E-01
    0.341961999E-02    0.490000248E-01
    0.349900010E-02    0.513263457E-01
    0.357837998E-02    0.537185818E-01
    0.366106001E-02    0.562519841E-01
    0.374374003E-02    0.588565543E-01
    0.382985990E-02    0.616119169E-01
    0.391595997E-02    0.644431040E-01
    0.400563981E-02    0.674353018E-01
    0.409532012E-02    0.705085695E-01
    0.418872014E-02    0.737515986E-01
    0.428210013E-02    0.770800784E-01
    0.437938003E-02    0.805858895E-01
    0.447663991E-02    0.841812491E-01
    0.457793986E-02    0.879594833E-01
    0.467923982E-02    0.918298736E-01
    0.478474004E-02    0.958857685E-01
    0.489023980E-02    0.100035287E+00
    0.500012003E-02    0.104367971E+00
    0.510997977E-02    0.108794279E+00
    0.522442022E-02    0.113397054E+00
    0.533884019E-02    0.118090235E+00
    0.545802014E-02    0.122946747E+00
    0.557720009E-02    0.127888724E+00
    0.570130022E-02    0.132975072E+00
    0.582541991E-02    0.138138130E+00
    0.595468003E-02    0.143419892E+00
    0.608394016E-02    0.148767859E+00
    0.621856004E-02    0.154203623E+00
    0.635317992E-02    0.159692183E+00
    0.649337983E-02    0.165234089E+00
    0.663358020E-02    0.170813665E+00
    0.677959994E-02    0.176410124E+00
    0.692562014E-02    0.182029054E+00
    0.707767997E-02    0.187627852E+00
    0.722973980E-02    0.193234533E+00
    0.738812005E-02    0.198787540E+00
    0.754647981E-02    0.204334125E+00
    0.771141984E-02    0.209797904E+00
    0.787635986E-02    0.215242997E+00
    0.804814044E-02    0.220581934E+00
    0.821992010E-02    0.225892276E+00
    0.839881972E-02    0.231078655E+00
    0.857769977E-02    0.236229181E+00
    0.876402017E-02    0.241244346E+00
    0.895033963E-02    0.246218711E+00
    0.914437976E-02    0.251051873E+00
    0.933841988E-02    0.255841613E+00
    0.954050012E-02    0.260488719E+00
    0.974258035E-02    0.265091479E+00
    0.995303970E-02    0.269554228E+00
    0.101635205E-01    0.273973256E+00
    0.103826998E-01    0.278258115E+00
    0.106018800E-01    0.282500953E+00
    0.108301602E-01    0.286617249E+00
    0.110584404E-01    0.290693849E+00
    0.112961801E-01    0.294651717E+00
    0.115339197E-01    0.298574626E+00
    0.117815202E-01    0.302392513E+00
    0.120291198E-01    0.306172490E+00
    0.122869797E-01    0.309859127E+00
    0.125448396E-01    0.313513726E+00
    0.128133800E-01    0.317080766E+00
    0.130819399E-01    0.320621580E+00
    0.133616198E-01    0.324086577E+00
    0.136413202E-01    0.327528208E+00
    0.139325997E-01    0.330902755E+00
    0.142238801E-01    0.334256917E+00
    0.145272398E-01    0.337552756E+00
    0.148305995E-01    0.340833992E+00
    0.151465395E-01    0.344062686E+00
    0.154624600E-01    0.347276866E+00
    0.157915000E-01    0.350450188E+00
    0.161205400E-01    0.353611797E+00
    0.164632201E-01    0.356735527E+00
    0.168059003E-01    0.359853476E+00
    0.171627794E-01    0.362939268E+00
    0.175196603E-01    0.366019249E+00
    0.178913400E-01    0.369075894E+00
    0.182630196E-01    0.372126728E+00
    0.186500996E-01    0.375160039E+00
    0.190372001E-01    0.378190428E+00
    0.194403399E-01    0.381203353E+00
    0.198434796E-01    0.384216249E+00
    0.202633999E-01    0.387217492E+00
    0.206831992E-01    0.390221655E+00
    0.211203992E-01    0.393214107E+00
    0.215575993E-01    0.396212429E+00
    0.220129993E-01    0.399201989E+00
    0.224683993E-01    0.402197391E+00
    0.229428001E-01    0.405186951E+00
    0.234169997E-01    0.408182353E+00
    0.239109993E-01    0.411177754E+00
    0.244047996E-01    0.414176077E+00
    0.249192007E-01    0.417177319E+00
    0.254335999E-01    0.420184374E+00
    0.259693991E-01    0.423191458E+00
    0.265052002E-01    0.426207274E+00
    0.270632002E-01    0.429223061E+00
    0.276209991E-01    0.432250559E+00
    0.282022003E-01    0.435280979E+00
    0.287832003E-01    0.438320130E+00
    0.293883998E-01    0.441362172E+00
    0.299935993E-01    0.444413006E+00
    0.306237992E-01    0.447469652E+00
    0.312540010E-01    0.450537980E+00
    0.319104008E-01    0.453609198E+00
    0.325668007E-01    0.456692100E+00
    0.332503989E-01    0.459777921E+00
    0.339340009E-01    0.462878317E+00
    0.346460007E-01    0.465981603E+00
    0.353580005E-01    0.469096631E+00
    0.360994004E-01    0.472214520E+00
    0.368410014E-01    0.475347012E+00
    0.376131982E-01    0.478485316E+00
    0.383853987E-01    0.481635302E+00
    0.391895995E-01    0.484788209E+00
    0.399938002E-01    0.487955660E+00
    0.408313982E-01    0.491126061E+00
    0.416689999E-01    0.494308144E+00
    0.425411984E-01    0.497498930E+00
    0.434134007E-01    0.500698507E+00
    0.443219989E-01    0.503903925E+00
    0.452303998E-01    0.507121027E+00
    0.461766012E-01    0.510343909E+00
    0.471226014E-01    0.513578415E+00
    0.481080003E-01    0.516818881E+00
    0.490933992E-01    0.520070910E+00
    0.501196012E-01    0.523325920E+00
    0.511457995E-01    0.526592553E+00
    0.522143990E-01    0.529865027E+00
    0.532831997E-01    0.533149183E+00
    0.543962009E-01    0.536436260E+00
    0.555093996E-01    0.539734960E+00
    0.566685982E-01    0.543036640E+00
    0.578278005E-01    0.546352863E+00
    0.590349995E-01    0.549669087E+00
    0.602421984E-01    0.552999914E+00
    0.614995994E-01    0.556330740E+00
    0.627567992E-01    0.559676111E+00
    0.640664026E-01    0.563021481E+00
    0.653757974E-01    0.566378593E+00
    0.667394027E-01    0.569738567E+00
    0.681032017E-01    0.573110223E+00
    0.695234016E-01    0.576481819E+00
    0.709438026E-01    0.579865158E+00
    0.724230036E-01    0.583248496E+00
    0.739020035E-01    0.586646378E+00
    0.754425973E-01    0.590041399E+00
    0.769829974E-01    0.593450904E+00
    0.785873979E-01    0.596854687E+00
    0.801917985E-01    0.600275874E+00
    0.818625987E-01    0.603691280E+00
    0.835333988E-01    0.607121229E+00
    0.852736011E-01    0.610545456E+00
    0.870138034E-01    0.613987029E+00
    0.888260007E-01    0.617419958E+00
    0.906381980E-01    0.620870352E+00
    0.925258025E-01    0.624312043E+00
    0.944131985E-01    0.627771139E+00
    0.963788033E-01    0.631218672E+00
    0.983444005E-01    0.634686530E+00
    0.100391597E+00    0.638139904E+00
    0.102438800E+00    0.641613603E+00
    0.104570799E+00    0.645075619E+00
    0.106702797E+00    0.648555219E+00
    0.108923398E+00    0.652020216E+00
    0.111143798E+00    0.655505538E+00
    0.113456197E+00    0.658976436E+00
    0.115768798E+00    0.662464738E+00
    0.118177198E+00    0.665938497E+00
    0.120585397E+00    0.669432580E+00
    0.123093598E+00    0.672909260E+00
    0.125602007E+00    0.676403403E+00
    0.128214195E+00    0.679882944E+00
    0.130826399E+00    0.683380008E+00
    0.133546799E+00    0.686856687E+00
    0.136267394E+00    0.690353751E+00
    0.139100596E+00    0.693833291E+00
    0.141934007E+00    0.697330415E+00
    0.144884795E+00    0.700807035E+00
    0.147835597E+00    0.704304039E+00
    0.150908604E+00    0.707774937E+00
    0.153981805E+00    0.711269021E+00
    0.157182202E+00    0.714739859E+00
    0.160382807E+00    0.718228221E+00
    0.163716003E+00    0.721693158E+00
    0.167049199E+00    0.725178540E+00
    0.170520604E+00    0.728634775E+00
    0.173991993E+00    0.732114315E+00
    0.177607402E+00    0.735564768E+00
    0.181222603E+00    0.739035547E+00
    0.184987798E+00    0.742477179E+00
    0.188753203E+00    0.745939255E+00
    0.192674398E+00    0.749369204E+00
    0.196595803E+00    0.752819657E+00
    0.200680003E+00    0.756237924E+00
    0.204763994E+00    0.759679615E+00
    0.209015995E+00    0.763080478E+00
    0.213269994E+00    0.766507506E+00
    0.217700005E+00    0.769893765E+00
    0.222130001E+00    0.773309112E+00
    0.226741999E+00    0.776677847E+00
    0.231355995E+00    0.780072868E+00
    0.236159995E+00    0.783424020E+00
    0.240963996E+00    0.786801517E+00
    0.245967999E+00    0.790129423E+00
    0.250972003E+00    0.793489456E+00
    0.256181985E+00    0.796796918E+00
    0.261393994E+00    0.800133586E+00
    0.266822010E+00    0.803414822E+00
    0.272248000E+00    0.806730986E+00
    0.277900010E+00    0.809986055E+00
    0.283551991E+00    0.813278914E+00
    0.289440006E+00    0.816504717E+00
    0.295325995E+00    0.819771349E+00
    0.301456004E+00    0.822970927E+00
    0.307586014E+00    0.826211333E+00
    0.313971996E+00    0.829381764E+00
    0.320356011E+00    0.832592964E+00
    0.327006012E+00    0.835734189E+00
    0.333656013E+00    0.838919222E+00
    0.340579987E+00    0.842028320E+00
    0.347505987E+00    0.845187068E+00
    0.354718000E+00    0.848264098E+00
    0.361930013E+00    0.851396620E+00
    0.369441986E+00    0.854444504E+00
    0.376951992E+00    0.857553661E+00
    0.384775996E+00    0.860569477E+00
    0.392598003E+00    0.863658190E+00
    0.400743991E+00    0.866650701E+00
    0.408892006E+00    0.869719029E+00
    0.417376012E+00    0.872688174E+00
    0.425862014E+00    0.875741839E+00
    0.443533987E+00    0.881738484E+00
    0.452737987E+00    0.884678543E+00
    0.461939991E+00    0.887720525E+00
    0.471524000E+00    0.890654743E+00
    0.481110007E+00    0.893708527E+00
    0.491090000E+00    0.896642625E+00
    0.501071989E+00    0.899710894E+00
    0.511467993E+00    0.902662635E+00
    0.521863997E+00    0.905757129E+00
    0.532689989E+00    0.908729196E+00
    0.543518007E+00    0.911864638E+00
    0.554791987E+00    0.914871693E+00
    0.566067994E+00    0.918056667E+00
    0.577812016E+00    0.921107471E+00
    0.589554012E+00    0.924353719E+00
    0.601783991E+00    0.927456975E+00
    0.614014029E+00    0.930770338E+00
    0.626752019E+00    0.933937848E+00
    0.639487982E+00    0.937324107E+00
    0.652754009E+00    0.940549910E+00
    0.666018009E+00    0.944011927E+00
    0.679831982E+00    0.947296083E+00
    0.693647981E+00    0.950825214E+00
    0.708036006E+00    0.954153121E+00
    0.722423971E+00    0.957728922E+00
    0.737407982E+00    0.961077273E+00
    0.752391994E+00    0.964670599E+00
    0.767997980E+00    0.967998505E+00
    0.783601999E+00    0.971556783E+00
    0.816107988E+00    0.978250563E+00
    0.833033979E+00    0.981312990E+00
    0.849960029E+00    0.984562099E+00
    0.885215998E+00    0.990223408E+00
    0.903576016E+00    0.992507100E+00
    0.921934009E+00    0.994895816E+00
    0.960174024E+00    0.998156667E+00
    0.980087996E+00    0.998821676E+00
ZONE T="FUN3D, grid 2 diagonal cut"
    0.173524004E-04    0.153751466E-05
    0.347048008E-04    0.447678576E-05
    0.535260006E-04    0.113237747E-04
    0.723470002E-04    0.198697635E-04
    0.927610017E-04    0.335492659E-04
    0.113175200E-03    0.492557665E-04
    0.135316994E-03    0.715487840E-04
    0.157458999E-03    0.962491904E-04
    0.181474796E-03    0.129283653E-03
    0.205489996E-03    0.165171717E-03
    0.231540005E-03    0.211497420E-03
    0.257587992E-03    0.261200592E-03
    0.285841990E-03    0.323871616E-03
    0.314094010E-03    0.390536472E-03
    0.344739994E-03    0.473208696E-03
    0.375383999E-03    0.560602930E-03
    0.408622000E-03    0.667643791E-03
    0.441860000E-03    0.780264556E-03
    0.477911992E-03    0.916894933E-03
    0.513963983E-03    0.106010924E-02
    0.553066027E-03    0.123255129E-02
    0.592169992E-03    0.141276792E-02
    0.634582015E-03    0.162843429E-02
    0.676993979E-03    0.185327895E-02
    0.722996017E-03    0.212100078E-02
    0.768999977E-03    0.239955564E-02
    0.818894012E-03    0.272983289E-02
    0.868790026E-03    0.307289301E-02
    0.922909996E-03    0.347819948E-02
    0.977028045E-03    0.389859406E-02
    0.103572803E-02    0.439378712E-02
    0.109442801E-02    0.490675308E-02
    0.115809601E-02    0.550937234E-02
    0.122176204E-02    0.613300316E-02
    0.129081996E-02    0.686397357E-02
    0.135987601E-02    0.761972088E-02
    0.143477600E-02    0.850381795E-02
    0.150967797E-02    0.941710081E-02
    0.159091805E-02    0.104836281E-01
    0.167216000E-02    0.115846200E-01
    0.176027603E-02    0.128684221E-01
    0.184839405E-02    0.141928755E-01
    0.194396800E-02    0.157351587E-01
    0.203954009E-02    0.173253920E-01
    0.214320002E-02    0.191749819E-01
    0.224687997E-02    0.210811608E-01
    0.235929992E-02    0.232957825E-01
    0.247173989E-02    0.255772080E-01
    0.259370008E-02    0.282250363E-01
    0.271566003E-02    0.309516043E-01
    0.284793996E-02    0.341128074E-01
    0.298021990E-02    0.373665243E-01
    0.312367990E-02    0.411338769E-01
    0.326715992E-02    0.450100862E-01
    0.342277996E-02    0.494895279E-01
    0.357837998E-02    0.540965013E-01
    0.374718010E-02    0.594038926E-01
    0.391595997E-02    0.648586601E-01
    0.409903983E-02    0.711116120E-01
    0.428210013E-02    0.775314942E-01
    0.448067999E-02    0.848318562E-01
    0.467923982E-02    0.923143178E-01
    0.489461981E-02    0.100716673E+00
    0.510997977E-02    0.109306082E+00
    0.534360018E-02    0.118775979E+00
    0.557720009E-02    0.128421560E+00
    0.583055988E-02    0.138796747E+00
    0.608394016E-02    0.149314627E+00
    0.635875994E-02    0.160296246E+00
    0.663358020E-02    0.171368048E+00
    0.693166023E-02    0.182565063E+00
    0.722973980E-02    0.193791240E+00
    0.755306007E-02    0.204807281E+00
    0.787635986E-02    0.215797961E+00
    0.822704006E-02    0.226320535E+00
    0.857769977E-02    0.236778870E+00
    0.895806029E-02    0.246623501E+00
    0.933841988E-02    0.256383777E+00
    0.975096039E-02    0.265488863E+00
    0.101635205E-01    0.274506420E+00
    0.106109800E-01    0.282902032E+00
    0.110584404E-01    0.291216254E+00
    0.115437796E-01    0.298983544E+00
    0.120291198E-01    0.306685180E+00
    0.125555200E-01    0.313931584E+00
    0.130819399E-01    0.321122497E+00
    0.136529002E-01    0.327954441E+00
    0.142238801E-01    0.334745526E+00
    0.148431798E-01    0.341262311E+00
    0.154624600E-01    0.347749919E+00
    0.161341801E-01    0.354039043E+00
    0.168059003E-01    0.360310674E+00
    0.175344609E-01    0.366442204E+00
    0.182630196E-01    0.372567922E+00
    0.190532394E-01    0.378603160E+00
    0.198434796E-01    0.384638399E+00
    0.207006000E-01    0.390624017E+00
    0.215575993E-01    0.396612555E+00
    0.224874001E-01    0.402583599E+00
    0.234169997E-01    0.408563405E+00
    0.244254004E-01    0.414543152E+00
    0.254335999E-01    0.420540452E+00
    0.265273992E-01    0.426552355E+00
    0.276209991E-01    0.432581753E+00
    0.288073998E-01    0.438640356E+00
    0.299935993E-01    0.444719344E+00
    0.312802009E-01    0.450833410E+00
    0.325668007E-01    0.456970781E+00
    0.339623988E-01    0.463146090E+00
    0.353580005E-01    0.469344765E+00
    0.368716009E-01    0.475587189E+00
    0.383853987E-01    0.481855929E+00
    0.400272012E-01    0.488165468E+00
    0.416689999E-01    0.494501293E+00
    0.434495993E-01    0.500880897E+00
    0.452303998E-01    0.507283866E+00
    0.471617989E-01    0.513730586E+00
    0.490933992E-01    0.520203590E+00
    0.511882007E-01    0.526714563E+00
    0.532831997E-01    0.533254623E+00
    0.555553995E-01    0.539829791E+00
    0.578278005E-01    0.546431184E+00
    0.602924004E-01    0.553064704E+00
    0.627567992E-01    0.559727430E+00
    0.654300004E-01    0.566419303E+00
    0.681032017E-01    0.573137403E+00
    0.710026026E-01    0.579881787E+00
    0.739020035E-01    0.586652517E+00
